# Raman CLI Tools version 0.1.0 (git commit f9d4440).
# ---
# preprocessor: arguments
# filepath: /home/nluetts/Repos/rustman-cli-tools/test/test_frames_misaligned.csv
# comment: '#'
# delimiter: ','
# ---
# transformation: ReshapeTransform
# rows: 1340
# ---
# transformation: DespikeTransform
# siglim: 10.0
# flim: 10.0
# ---
# transformation: FinningTransform
# threshold: 6.0
# iterations: 4
# ---
# transformation: AverageTransform
# ---
# transformation: BaselineTransform
# points:
# - a: 637.5844989862554
#   b: 650.4808140312286
# - a: 638.4598410942524
#   b: 650.8325786783826
# - a: 639.1642204957016
#   b: 650.5025450960773
# - a: 640.1099619717712
#   b: 654.3801100074801
# - a: 643.129958563932
#   b: 660.0938756043627
# - a: 644.5798629435653
#   b: 663.6136951860069
# - a: 648.1622512507056
#   b: 673.0631835704015
# - a: 648.989221236922
#   b: 673.6365326970193
# - a: 650.6156882842579
#   b: 673.8616130893793
# - a: 652.3448550479351
#   b: 673.0094982544917
# - a: 657.1837769506683
#   b: 670.282312863608
# - a: 658.9505921928215
#   b: 673.5636962212585
# - a: 659.5848657900247
#   b: 674.0619321602376
# - a: 660.1168652403148
#   b: 675.1423770556055
# - a: 661.123819420125
#   b: 689.4552594967535
# - a: 662.5845443869432
#   b: 696.0527358581933
# store: false
# ---
# transformation: RamanShiftTransform
# wavelength: 532.1
# refractive_index: 1.000264
# correction: -3.0
# ---
# transformation: CountConversionTransform
# exposure: 300.0
# conversion_factor: 1.42857
# ---
3135.952275495292,-0.013199218901531515
3136.3640558421807,0.0015640688316096146
3136.7758078727234,0.0018969003436500344
3137.1875315887974,0.0061148891536764415
3137.5992269922704,0.011927720341045906
3138.010894085027,0.014868697229787217
3138.422532868931,0.007435084702147394
3138.834143345864,0.009895366255946232
3139.2457255176982,0.007188975214440026
3139.657279386311,0.007961965541293744
3140.068804953571,0.01862899357793148
3140.4803022213546,-0.007148633695560896
3140.891771191534,-0.002242369767055517
3141.3032118659876,0.007745312187552272
3141.7146242465815,0.015767526825148388
3142.1260083351967,-0.00046528920682522646
3142.537364133701,0.009636709832328904
3142.9486916439687,0.0006932648592583703
3143.3599908678752,-0.001340113064503235
3143.7712618072915,-0.002767302086977341
3144.1825044640905,0.002772859024924782
3144.5937188401454,-0.002599388634086702
3145.004904937326,-0.0016850642565809618
3145.416062757503,-0.003711943630430333
3145.827192302559,-0.0016282038182615973
3146.2382935743576,0.0004968447077960585
3146.6493665747666,-0.0031274093537409925
3147.060411305668,0.004873529499318612
3147.471427768926,-0.008873388761927286
3147.8824159664173,0.00552355322523225
3148.293375900011,-0.003778235173241696
3148.704307571577,-0.0000731673071523464
3149.115210982984,-0.009228632878125202
3149.52608613611,0.007820287072517496
3149.936933032821,-0.0038243229105263967
3150.3477516749895,0.015444768183219729
3150.758542064486,0.06867567311704106
3151.1693042031784,0.1347591973508419
3151.58003809294,0.15843524339439302
3151.99074373564,0.17149014296700757
3152.401421133146,0.1710526304883997
3152.8120702873325,0.11338287937461856
3153.222691200066,0.04192343206249912
3153.6332838732174,0.013734112901385053
3154.043848308654,-0.004014240887634544
3154.454384508246,-0.005060654150472387
3154.8648924738677,0.003938453631794059
3155.27537220738,0.000820824799591813
3155.6858237106567,0.0006877049379492619
3156.0962469855663,0.007732766933776807
3156.5066420339776,-0.002451342030030085
3156.9170088577516,-0.009477014599265986
3157.3273474587722,-0.0006482614647280487
3157.737657838892,0.0031285206406210966
3158.14793999999,0.016732469049608834
3158.55819394393,0.02338974382158752
3158.9684196725775,0.039704872150152136
3159.378617187806,0.04028240830672251
3159.7887864914774,0.059541718355504335
3160.198927585463,0.04064982202882558
3160.6090404716283,0.030038180285594237
3161.01912515184,0.019087523651680493
3161.4291816279683,-0.003812827886695066
3161.839209901874,-0.007794986083243161
3162.249209975428,0.008582844813058653
3162.659181850499,-0.00440625036659689
3163.06912552895,0.0029100204003243654
3163.47904101265,-0.00637932353833397
3163.8889283034623,-0.0011092109937780046
3164.2987874032556,-0.0014617100986358187
3164.7086183138927,-0.008760127634003398
3165.118421037244,-0.001206256189081522
3165.528195575172,-0.005025981050561107
3165.9379419295446,0.0018686154062734052
3166.3476601022235,-0.001575206339962478
3166.7573500950766,-0.002701677764504424
3167.16701190997,-0.003235771514030292
3167.5766455487633,-0.0012239764160730602
3167.9862510133316,0.008558918864890653
3168.395828305532,-0.0004739990762428308
3168.805377427228,-0.004960218865625554
3169.2148983802895,0.0006266270844695423
3169.6243911665765,0.002301368576918571
3170.0338557879563,0.010424814294710094
3170.4432922462884,0.0012800347113994099
3170.852700543445,0.006182905998989323
3171.2620806812865,-0.0025003969811143007
3171.671432661672,0.010581701589095336
3172.0807564864667,0.0073128055775348155
3172.49005215754,0.01164628786569496
3172.8993196767474,-0.0066522662842350205
3173.308559045956,0.009951151480282807
3173.717770267026,0.005476288915995976
3174.126953341827,0.008432868285109248
3174.5361082722184,0.0026345138633058897
3174.9452350600573,0.009223060582014261
3175.3543337072138,0.0025042718174684174
3175.7634042155464,0.01295640210765871
3176.172446586921,0.02629222396505225
3176.581460823192,0.01565767642410645
3176.990446926228,0.02017989718744031
3177.3994048978916,0.011562765657237652
3177.8083347400384,0.01009279674506778
3178.2172364545363,0.02551326339051401
3178.6261100432453,0.01897301239469288
3179.034955508022,0.021080593822751553
3179.443772850733,0.014886990911809997
3179.852562073237,0.024665216399391884
3180.2613231773958,0.02971729379110182
3180.6700561650728,0.023929464883814675
3181.078761038119,0.016180908203660173
3181.487437798406,0.03334802616970844
3181.896086447787,0.03402203444345688
3182.304706988128,0.01583449256926888
3182.7132994212884,0.016566796021305043
3183.12186374912,0.034722859402258666
3183.5303999734892,0.024265321984965584
3183.938908096257,0.03025148762279699
3184.3473881192785,0.02389076253075467
3184.7558400444204,0.028609760521695095
3185.164263873533,0.017863559633253156
3185.572659608479,0.026566691655689582
3185.981027251122,0.03527177547535184
3186.389366803315,0.03428130012990066
3186.797678266921,0.03490777896777029
3187.205961643794,0.025432109967543547
3187.6142169357963,0.0376642472388626
3188.022444144783,0.024782254571758255
3188.430643272616,0.021138059619607696
3188.8388143211505,0.022691264013259462
3189.24695729225,0.02568911237062765
3189.6550721877647,0.037062488218288205
3190.0631590095522,0.041506984418365735
3190.4712177594806,0.017186771249688093
3190.8792484393944,0.020360862804703648
3191.2872510511597,0.03509015934899014
3191.6952255966294,0.02099241236054244
3192.1031720776646,0.019720192962918534
3192.511090496117,0.0337030134914361
3192.9189808538467,0.03069898912845476
3193.326843152712,0.021684844083431867
3193.734677394565,0.029719421514979964
3194.1424835812636,0.03509687005839362
3194.5502617146662,0.04353909397692236
3194.958011796628,0.03180843768579516
3195.365733829002,0.03805574264779994
3195.773427813648,0.03811820015675019
3196.1810937524197,0.049455734497550426
3196.588731647172,0.04038389472833294
3196.9963414997633,0.03200514408485284
3197.4039233120466,0.028599071845119055
3197.8114770858783,0.032364402973799354
3198.219002823108,0.030635978368739998
3198.626500525602,0.018611727662232628
3199.0339701952075,0.03603001575679037
3199.4414118337772,0.027591908590957392
3199.8488254431686,0.03413726104389084
3200.2562110252393,0.03507157102184238
3200.663568581838,0.0366428025189857
3201.07089811482,0.03254364362418066
3201.4781996260435,0.04360622659856262
3201.885473117357,0.03829217428307543
3202.292718590615,0.04455330456778364
3202.699936047677,0.03553462330925035
3203.1071254903904,0.04538584999751889
3203.5142869206097,0.045223642461490694
3203.9214203401903,0.04517740852409578
3204.328525750983,0.03326223319072044
3204.7356031548425,0.049022842491683566
3205.1426525536185,0.06154304558965378
3205.5496739491678,0.05680790550747729
3205.9566673433396,0.047554956880192185
3206.3636327379872,0.03974882072547904
3206.7705701349637,0.0629300544896885
3207.1774795361184,0.07296536467225449
3207.5843609433095,0.048070318514203625
3207.991214358385,0.06465271412567351
3208.3980397831983,0.06820140262881877
3208.8048372195944,0.07968869550212533
3209.2116066694302,0.07680700296203068
3209.618348134561,0.07676449715950977
3210.0250616168305,0.08425602483858055
3210.4317471180934,0.07256450144230173
3210.838404640203,0.08376634091770845
3211.245034185005,0.08540532314324072
3211.6516357543524,0.07556645361817743
3212.058209350095,0.08410392415859898
3212.464754974085,0.07982939575035047
3212.871272628173,0.0920210742822838
3213.2777623142056,0.08525296354933583
3213.684224034038,0.0872403029018273
3214.090657789516,0.07652715313223189
3214.49706358249,0.08187782184174917
3214.9034414148095,0.07325065076001834
3215.309791288327,0.08904261320179398
3215.7161132048873,0.06301150161788065
3216.122407166344,0.0728872026174272
3216.528673174542,0.0760340169369234
3216.934911231336,0.07279867392914703
3217.34112133857,0.05482412767532218
3217.7473034980903,0.05390765286406856
3218.1534577117545,0.06691893368311011
3218.5595839814027,0.052537930234155136
3218.9656823088894,0.052316888419926356
3219.3717526960572,0.04391109693001075
3219.7777951447533,0.04653332614381701
3220.183809656831,0.04787844313522733
3220.5897962341396,0.04510134185979644
3220.9957548785196,0.05085862019861659
3221.401685591824,0.07328123160361143
3221.807588375899,0.0710269492601892
3222.2134632325874,0.06511335859548102
3222.619310163743,0.07226607835514844
3223.02512917121,0.04700980099946394
3223.4309202568325,0.05642683484933744
3223.836683422465,0.04551335995541148
3224.242418669944,0.02315350578778907
3224.6481260011224,0.02983900457890905
3225.0538054178433,0.02722870961018351
3225.459456921957,0.023106854665685777
3225.865080515308,0.020262381345083184
3226.27067619974,0.014453240324038916
3226.676243977099,0.023520943014881963
3227.0817838492344,0.021488145842108022
3227.487295817988,0.030789066762410503
3227.892779885208,0.0213729758754482
3228.298236052734,0.014861734820350775
3228.703664322418,0.009511799818745606
3229.109064696101,0.015847046876718972
3229.5144371756323,0.018344972396314187
3229.919781762853,0.016655873465891997
3230.325098459607,-0.0035850926825440063
3230.730387267742,-0.005800568631389085
3231.135648189097,0.004662277085046902
3231.540881225521,0.0031437865261739924
3231.9460863788577,0.0009845684881729328
3232.35126365095,0.0013258591509433288
3232.756413043641,0.005273539050536766
3233.161534558775,0.00922107324479082
3233.5666281982003,0.004033289666033741
3233.971693963753,0.014613495938173775
3234.376731857277,0.004419267473619869
3234.781741880621,0.005455061331731266
3235.1867240356237,0.011437394874933185
3235.5916783241273,0.005254785657776901
3235.9966047479797,-0.003374260649978808
3236.4015033090163,0.009300954027909916
3236.8063740090865,0.004220692290190559
3237.2112168500303,0.0013513450528290234
3237.6160318336897,-0.006701317933060976
3238.0208189619057,0.006556174853333627
3238.4255782365212,0.019407004573610907
3238.8303096593777,0.004886971674619386
3239.2350132323168,-0.009111759545717635
3239.6396889571824,-0.009483784387831007
3240.0443368358096,-0.00047853926205350476
3240.4489568700474,-0.0029489739021256187
3240.853549061737,-0.005071171919885653
3241.258113412714,-0.005272247444980826
3241.6626499248196,-0.00320223389655446
3242.067158599897,-0.0004922023885518836
3242.471639439789,0.010433600414820084
3242.876092446332,0.005333283546066196
3243.2805176213706,-0.0007014322706905152
3243.6849149667387,-0.0028329925158489077
3244.089284484286,0.00185392145089056
3244.493626175842,-0.0036028018669272866
3244.8979400432513,0.017347573579869654
3245.3022260883586,0.010839504497505866
3245.7064843129956,-0.0015011459332454212
3246.110714719007,-0.009238077934546089
3246.5149173082264,-0.0022236886953319007
3246.9190920824985,0.0021079984210085776
3247.3232390436615,0.0036981238766060466
3247.727358193554,0.013919715575964844
3248.1314495340152,-0.002631769952051414
3248.5355130668827,-0.008394704884061379
3248.9395487939955,0.016993145297810895
3249.34355671719,-0.0011979968389770176
3249.7475368383084,-0.012215995622004054
3250.151489159189,-0.0009466705105304678
3250.555413681664,-0.000530556397741176
3250.9593104075743,0.0004099631417578514
3251.3631793387613,0.0005326827950025436
3251.7670204770607,0.005265505951511855
3252.17083382431,-0.01580147765506961
3252.574619382342,-0.01025352395300197
3252.9783771530006,0.009713826106852817
3253.3821071381244,-0.004528857083179625
3253.785809339539,-0.011767907893596217
3254.189483759092,0.011179084218648827
3254.593130398615,-0.0065723307811147635
3254.996749259948,-0.00575623032006946
3255.400340344926,-0.006167161943562638
3255.8039036553855,0.004284756641178698
3256.20743919316,-0.0032529492729876553
3256.6109469600915,-0.004191509961010605
3257.0144269580087,-0.002151489195607966
3257.417879188753,-0.009517815710098737
3257.821303654159,0.007069101716354999
3258.224700356063,-0.0036877499165218707
3258.628069296298,-0.001123576218382354
3259.031410476699,0.004712961149030959
3259.434723899103,-0.001197183923171227
3259.8380095653433,-0.01686923665453712
3260.2412674772577,0.010534151605256678
3260.6444976366793,-0.011453331186662453
3261.0477000454434,-0.009008589605365692
3261.450874705383,0.0021469780961848373
3261.854021618333,-0.003300893853393019
3262.257140786128,0.0054584537300297374
3262.6602322106046,-0.005370433272553616
3263.063295893596,-0.00011953206401951013
3263.4663318369303,0.015190765991876397
3263.869340042447,-0.004998680293049259
3264.2723205119787,-0.0022628277481398507
3264.67527324736,0.018021545627488835
3265.0781982504186,0.04146735036827579
3265.4810955229937,0.055497126305106975
3265.8839650669174,0.045482207107872416
3266.2868068840235,0.04611465506801954
3266.6896209761385,0.018191630681757776
3267.092407345103,0.01361363753693963
3267.4951659927438,-0.012443152737625392
3267.8978969208997,-0.003094827041877876
3268.300600131395,0.003152466075344769
3268.7032756260683,-0.0024821695082040823
3269.10592340675,-0.00495660265362408
3269.5085434752705,-0.011236805764180185
3269.911135833464,0.01269239528124137
3270.3137004831565,-0.004243980513703403
3270.71623742619,0.007860666670308812
3271.1187466643814,0.0022820086339269434
3271.5212281995787,-0.003473146400693854
3271.9236820335977,-0.004543725270883521
3272.3261081682795,0.0036398264695139595
3272.728506605449,-0.008091137790447503
3273.130877346944,-0.010568132166779765
3273.5332203945877,-0.007187072979989219
3273.9355357502154,-0.010894581805206863
3274.337823415656,-0.010735480803240256
3274.7400833927377,-0.005302660385803095
3275.1423156832934,-0.003267762600821439
3275.54452028915,-0.004865887487542137
3275.9466972121418,0.0033818042660885036
3276.3488464540937,0.009813244791373825
3276.7509680168387,-0.00497376757014734
3277.153061902207,0.009546672068654224
3277.5551281120215,-0.00043607367134704337
3277.9571666481215,0.006229716494699169
3278.3591775123273,-0.0009997451108976862
3278.76116070647,0.006487024694049241
3279.1631162323806,0.00201187323814731
3279.5650440918903,-0.006217500131899538
3279.96694428682,-0.009463303245802248
3280.368816819004,-0.006727415687956416
3280.7706616902665,-0.007100298644773987
3281.172478902437,0.0020293497211495773
3281.5742684573465,0.0021256046717671143
3281.9760303568196,-0.008104095574704736
3282.3777646026847,-0.007011801743004985
3282.7794711967704,-0.0008735377446606006
3283.1811501409034,0.011485351270981024
3283.5828014369154,0.005418702819327287
3283.984425086625,-0.020896624866926852
3284.386021091865,0.013002596043457102
3284.787589454462,-0.011496881450027295
3285.189130176242,-0.003010323678060036
3285.5906432590286,0.00019368035939119492
3285.9921287046545,0.009327397695191527
3286.393586514943,0.008011216622837953
3286.795016691721,0.006870713533817105
3287.1964192368164,0.01283498188971385
3287.597794152049,0.01609844943494607
3287.999141439252,0.01407649379202755
3288.4004611002465,0.00952847534077357
3288.801753136861,0.005919357788687388
3289.2030175509185,0.022751349737864766
3289.6042543442477,0.01673358702836802
3290.00546351867,0.013652201772332265
3290.406645076015,0.00669244353590017
3290.807799018105,0.007369921760978861
3291.208925346762,0.018271712556806846
3291.610024063817,0.0146009939247716
3292.0110951710894,0.023800026336426406
3292.4121386704114,0.01566197161978195
3292.813154563596,0.006934812200495208
3293.214142852475,0.009374720232141956
3293.615103538874,0.022866436518026157
3294.0160366246114,0.009199051163118907
3294.416942111513,0.0021144765048232575
3294.8178200014045,0.019547354662040717
3295.218670296108,0.0074640131735877096
3295.6194929974463,0.01625486793771921
3296.020288107244,0.010638371413210593
3296.4210556273247,0.010608252934735052
3296.8217955595073,0.018047843597785385
3297.22250790562,0.00184189565742748
3297.6231926674855,0.009693392434113426
3298.0238498469216,0.02566437281721884
3298.424479445758,0.025163877915534486
3298.8250814658113,0.007835482326893706
3299.2256559089074,0.015394814928232026
3299.6262027768607,0.008302360594688203
3300.026722071507,0.023866171473675774
3300.4272137946564,0.021128322648262938
3300.8276779481357,0.02486441571385772
3301.228114533766,0.021301985013657293
3301.628523553369,0.017797838560498023
3302.028905008764,0.005756895995909368
3302.429258901775,0.020561025874119822
3302.829585234221,0.026888594615737338
3303.2298840079256,0.01749528546629849
3303.630155224708,0.02382337954381024
3304.030398886389,0.023733188320391972
3304.4306149947897,0.027529991153967214
3304.830803551729,0.036922664647752665
3305.2309645590285,0.02740873649827618
3305.6310980185085,0.04575648105796664
3306.0312039319915,0.04619775253490378
3306.4312823012942,0.05795076294654178
3306.8313331282366,0.04796418967343244
3307.231356414639,0.04392747259689595
3307.6313521623183,0.04790430168409288
3308.031320373102,0.046577850627123926
3308.4312610488037,0.06452309758871834
3308.8311741912426,0.05282426593422341
3309.2310598022364,0.05509345076115127
3309.630917883605,0.054887165332921845
3310.0307484371724,0.03929449291915587
3310.4305514647535,0.04804840690258019
3310.8303269681633,0.04731103634621361
3311.2300749492256,0.04787080602497314
3311.6297954097554,0.03917273798018313
3312.0294883515708,0.028940250086369468
3312.4291537764943,0.022952679355256654
3312.828791686339,0.030942618823367345
3313.2284020829234,0.056982865712811144
3313.627984968064,0.04391760059567239
3314.027540343587,0.02943479778100392
3314.4270682112997,0.04810600763239207
3314.8265685730203,0.026836623098827263
3315.2260414305715,0.02639296655131462
3315.625486785768,0.03586277344261271
3316.024904640426,0.04433077334314558
3316.4242949963627,0.031140946671234057
3316.8236578553892,0.02733370599387702
3317.222993219332,0.01420014925220091
3317.6223010900007,0.01995412843969628
3318.0215814692137,0.0033355687487204716
3318.42083435879,0.01387184911288666
3318.82005976054,0.023642187684315037
3319.2192576762836,0.025738157994791826
3319.618428107832,0.03285374477727672
3320.017571057004,0.024321368893241394
3320.4166865256157,0.02635923121083796
3320.8157745154845,0.021487365117811148
3321.214835028419,0.04803779514675678
3321.6138680662384,0.02491463542911646
3322.0128736307574,0.037055376418030146
3322.4118517237944,0.019659175961158768
3322.8108023471555,0.035523755613860473
3323.2097255026606,0.02793368079009178
3323.6086211921265,0.01880643076296633
3324.0074894173645,0.0437162076855978
3324.4063301801893,0.044222179069473094
3324.8051434824124,0.041477830501641125
3325.203929325851,0.04493946957078889
3325.6026877123168,0.033033177104724025
3326.0014186436274,0.0548797049407265
3326.4001221215904,0.06656113740044182
3326.7987981480237,0.05063428173198855
3327.1974467247396,0.06302704966886026
3327.5960678535503,0.06980438498371157
3327.994661536271,0.07516368808469792
3328.3932277747126,0.0898087673386912
3328.7917665706846,0.09452016092044108
3329.190277926008,0.10284043838599694
3329.5887618424895,0.11210856144015699
3329.9872183219445,0.12001768840724986
3330.3856473661804,0.12124323239713107
3330.7840489770124,0.14039566316113733
3331.182423156253,0.13517416766106236
3331.580769905712,0.1641532409448029
3331.979089227206,0.1556194755323187
3332.3773811225406,0.14116691954591684
3332.775645593531,0.13221676391084172
3333.1738826419883,0.13835853191417033
3333.572092269722,0.1404172642045246
3333.9702744785445,0.13188059683628076
3334.36842927027,0.1269542899597672
3334.7665566467,0.12700078326101072
3335.1646566096547,0.11739675364363979
3335.562729160938,0.10927206800774401
3335.9607743023653,0.1100882626699614
3336.358792035746,0.08609170429079521
3336.7567823628906,0.08909847238121266
3337.1547452856034,0.06373568413724312
3337.5526808057016,0.07912167808116012
3337.9505889249904,0.06293715502955338
3338.3484696452847,0.05741410567243338
3338.746322968389,0.07001956065222768
3339.144148896116,0.04127157292593476
3339.541947430271,0.049375277927652124
3339.939718572668,0.04533286873056041
3340.337462325112,0.04152737859882456
3340.7351786894146,0.05188614273899992
3341.132867667383,0.03877621048276694
3341.5305292608273,0.04652908288520241
3341.928163471553,0.040946091207149475
3342.325770301373,0.017874791020933936
3342.7233497520947,0.029897754597591846
3343.1209018255245,0.029649914231896297
3343.5184265234693,0.04813929257524027
3343.915923847739,0.04884239346852962
3344.3133938001415,0.037448517023511964
3344.710836382482,0.03257720635979544
3345.108251596573,0.035060153637890556
3345.5056394442145,0.053914614524766286
3345.9029999272257,0.052959933577615824
3346.3003330474016,0.03836153096494821
3346.6976388065523,0.039305120006606874
3347.094917206488,0.04713168478378329
3347.4921682490135,0.02630131993299144
3347.889391935936,0.02973808028474303
3348.28658826906,0.03911011617052351
3348.683757250194,0.030383243717687178
3349.0808988811427,0.053942551185960974
3349.478013163717,0.020465621251173006
3349.8751000997154,0.02817976526158694
3350.2721596909496,0.031265220978405006
3350.669191939219,0.007161522973514329
3351.066196846338,0.02354626321859473
3351.463174414107,0.013036823849317033
3351.8601246443295,0.018677725451530704
3352.257047538813,0.020400687657794736
3352.6539430993644,0.01862061940664534
3353.0508113277865,0.025452704756679507
3353.4476522258847,0.005617641639955767
3353.844465795461,0.0024124233141530225
3354.2412520383236,0.000217252339133822
3354.638010956276,-0.010116495605717311
3355.034742551126,-0.003340340039476125
3355.431446824668,0.027976287794740453
3355.828123778718,0.017703650721221296
3356.224773415069,-0.006950459741368867
3356.6213957355326,0.005060073735528472
3357.017990741909,-0.00034082908864611347
3357.4145584360035,0.00852299432757199
3357.811098819618,-0.0005029661597265574
3358.207611894556,0.02471075422280122
3358.6040976626236,-0.0042293824015194725
3359.000556125621,0.0031530033458391344
3359.3969872853486,0.0038184391876493503
3359.7933911436176,0.0008575277390766938
3360.189767702221,0.0036650502369430433
3360.5861169629648,-0.007323243318835897
3360.982438927654,0.007737074044469875
3361.378733598087,0.011499494156223568
3361.7750009760694,0.00027989843876704857
3362.1712410634027,0.00025280238594770294
3362.567453861885,-0.0037497023100475074
3362.9636393733226,0.0011814765048729315
3363.359797599517,0.00880059230218661
3363.755928542267,-0.003800443929489227
3364.1520322033766,0.010502903969364085
3364.548108584646,0.013391197348145619
3364.9441576878717,-0.0034702444613602407
3365.340179514864,-0.010921670847972064
3365.7361740674182,-0.001997269310796795
3366.1321413473356,-0.004076279938347515
3366.5280813564164,-0.0018022903710979415
3366.9239940964626,0.009826250445741896
3367.319879569271,-0.0004470492945833055
3367.7157377766453,0.011554060883827095
3368.111568720388,0.006175381321871535
3368.5073724022936,0.00008742811566707167
3368.9031488241626,0.009548422125447783
3369.2988979877973,0.004424118183384123
3369.6946198949977,0.001567746752443844
3370.0903145475645,-0.002654150418873633
3370.4859819472904,0.009986865532862071
3370.8816220959798,0.010123005394655547
3371.2772349954307,0.0026965468740222853
3371.6728206474454,0.009275132769196644
3372.068379053819,0.008052033625940386
3372.463910216346,0.0033160040879251515
3372.8594141368344,0.008952025788214111
3373.254890817075,-0.003288759505692336
3373.650340258874,0.0010412181203157712
3374.0457624640208,-0.005415377438717089
3374.441157434319,-0.002511878956325009
3374.8365251715636,0.0028973940818110768
3375.231865677557,0.006221838583773748
3375.62717895409,-0.002973692276286247
3376.022465002965,0.0057189197992244265
3376.4177238259804,-0.002761421269290182
3376.8129554249313,-0.0028340160691152617
3377.208159801616,0.006814701546947794
3377.6033369578295,0.014257284551030473
3377.9984868953684,-0.007289836080817735
3378.393609616033,-0.018878845574857236
3378.78870512162,0.012005721741309846
3379.183773413919,0.002561124779449473
3379.578814494737,0.003674160726545352
3379.9738283658626,-0.0024947538733759477
3380.368815029095,-0.00968158022256362
3380.7637744862263,0.008968601394107637
3381.1587067390583,0.006311730192723027
3381.5536117893876,-0.0051199386149343535
3381.9484896390036,0.007203963704512185
3382.3433402897053,0.011351447226324059
3382.738163743283,0.0005151142120379512
3383.13296000154,0.003050981749520286
3383.527729066269,0.005826173744918645
3383.922470939264,-0.0013699362642815445
3384.317185622322,0.009586702751977236
3384.71187311723,-0.0034026304315097223
3385.1065334257923,0.0009263702069114428
3385.501166549801,0.0013141031489313643
3385.8957724910447,0.00725717801806741
3386.290351251325,0.004957668712020142
3386.6849028324336,0.01185807813801621
3387.0794272361622,0.01308393087485822
3387.4739244643097,0.0038541718755749715
3387.8683945186635,0.012250441613774242
3388.26283740102,0.023337174684106073
3388.6572531131746,0.007473487841262337
3389.0516416569217,0.024538449997940633
3389.4460030340506,-0.003818568555660935
3389.8403372463567,0.009960988367413727
3390.234644295631,0.0041955072020429494
3390.628924183668,0.016782472453080222
3391.0231769122634,0.007131203127597804
3391.417402483202,0.011350155073410858
3391.8116008982865,0.02328342909937504
3392.205772159301,0.018295833439299334
3392.599916268038,0.03017210233848931
3392.994033226293,0.01723074955249162
3393.38812303586,-0.002949086769114579
3393.782185698528,0.01586773356476816
3394.176221216089,0.019433767626925752
3394.570229590334,0.005173492835211692
3394.964210823053,0.012688632879702904
3395.358164916041,0.023675408135329718
3395.75209187109,0.01491851380457024
3396.145991689984,0.003587743307739681
3396.5398643745198,0.015295537911364319
3396.933709926491,0.013240456561136885
3397.3275283476837,0.021360311526639048
3397.7213196398866,0.015774772325370723
3398.115083804895,0.01204458040362804
3398.508820844497,0.01998782244462014
3398.9025307604834,0.024819495029856746
3399.2962135546436,0.01372630403276259
3399.68986922877,0.021253629246053143
3400.0834977846475,0.010399184864912352
3400.477099224071,0.011879987940735089
3400.870673548827,0.00857041659531021
3401.264220760708,0.012088705475008931
3401.657740861497,0.02105864348019498
3402.0512338529916,0.009604081987268379
3402.4446997369787,0.012765377399339263
3402.8381385152406,-0.003662693319508399
3403.2315501895723,0.011781527230710874
3403.624934761763,0.005538274805395368
3404.018292233597,0.011039415748678286
3404.4116226068704,0.008931325020539395
3404.8049258833607,0.023903604171656784
3405.1982020648657,0.0005806437961431492
3405.591451153168,0.022028982490138477
3405.984673150056,0.02495870643414049
3406.377868057321,0.005709257813740135
3406.771035876749,-0.0007127526339153001
3407.164176610128,0.014148960864591805
3407.5572902592403,0.019839673226229346
3407.950376825879,0.020075206525844196
3408.3434363118336,0.015154277573851509
3408.7364687188856,0.027685015493877346
3409.1294740488197,0.006871830974892118
3409.5224523034326,-0.004526718484587804
3409.915403484502,0.0018890417232030848
3410.3083275938197,0.003087469476660663
3410.701224633168,0.006086556356402208
3411.094094604338,0.0029671961781844876
3411.486937509113,0.02144824650265308
3411.87975334928,0.0239114342331146
3412.2725421266255,0.015994257117230536
3412.6653038429304,-0.008426712188407385
3413.0580384999857,-0.009383698324548388
3413.4507460995774,0.004125019687982017
3413.8434266434874,0.00028916154528108707
3414.2360801335053,0.01722368622733116
3414.628706571411,-0.0009581312215972127
3415.021305958993,-0.0027513982200065294
3415.4138782980376,0.014849361503805865
3415.8064235903225,-0.00039162522127299916
3416.198941837646,-0.0026030353471418826
3416.5914330417795,0.007076806897902311
3416.98389720451,0.010753039681270012
3417.3763343276273,-0.004248712157049918
3417.768744412912,-0.005556497765641292
3418.1611274621455,0.0014261714300464296
3418.5534834771156,-0.0031236343762056067
3418.945812459607,-0.005390156889448332
3419.3381144114046,0.001897125246623743
3419.7303893342855,0.01219072036292496
3420.1226372300357,0.017078563274379007
3420.514858100442,0.0014154920559305388
3420.9070519472834,0.00750732317709868
3421.29921877235,0.009754370301389145
3421.6913585774114,0.004429139436276597
3422.083471364262,-0.011896330828225192
3422.475557134682,0.011994597138002171
3422.867615890449,0.0012605093094372262
3423.2596476333556,0.0025507640416800935
3423.6516523651735,0.022121201053639482
3424.043630087691,0.0027894059972899837
3424.4355808026885,0.016470964472016087
3424.8275045119476,0.01987119042204544
3425.219401217249,0.000598051344953361
3425.6112709203767,0.005442967622980291
3426.003113623111,0.0053568186083710265
3426.3949293272376,0.024281274220931338
3426.786718034528,0.000434193596919867
3427.1784797467744,0.014308610300883401
3427.570214465749,0.023071280984720218
3427.961922193239,0.014325264301185433
3428.353602931021,0.012740019585659922
3428.7452566808793,0.0059194344102630626
3429.136883444592,0.0336457347052321
3429.5284832239413,0.021470132214199078
3429.9200560207005,0.025666561733382467
3430.3116018366622,0.029081675626492873
3430.7031206735965,0.028705140383681636
3431.0946125332903,0.025499475139027113
3431.4860774175168,0.03457715696228734
3431.8775153280585,0.02035328773211161
3432.2689262666977,0.041537298528614555
3432.660310235212,0.032914005425408135
3433.051667235377,0.03452888931697453
3433.4429972689745,0.024881155323364
3433.834300337785,0.017461405102810863
3434.225576443587,0.029559111196514262
3434.616825588159,0.019248012012227922
3435.0080477732795,0.03857843312073041
3435.399243000727,0.03146098070058659
3435.7904112722813,0.03145338564621799
3436.181552589718,0.019815849992590007
3436.5726669548176,0.03192175680781301
3436.963754369356,0.03131290953106842
3437.3548148351138,0.022929111001446945
3437.745848353866,0.008155131169026405
3438.1368549273893,0.017311497965652275
3438.5278345574675,0.021224630180635362
3438.918787245874,0.019772849109905333
3439.3097129943826,0.010905018749340243
3439.700611804777,0.020728908357125434
3440.091483678833,0.01541849349634362
3440.482328618323,0.03688397063705989
3440.873146625027,0.015049341170573728
3441.2639377007245,0.010522490755469497
3441.654701847187,0.01637024936286636
3442.0454390661926,0.016970938493750243
3442.4361493595197,0.009126088810668872
3442.826832728942,0.018113007951435563
3443.2174891762375,0.019076704702474273
3443.608118703176,0.013584351968736454
3443.998721311543,0.0003673691260768036
3444.3892970031075,0.01581431286840335
3444.7798457796507,0.012011055389419755
3445.170367642938,0.02667663691440692
3445.5608625947566,0.005429587984712322
3445.951330636875,0.00017651949318085272
3446.3417717710668,0.01019629258085543
3446.7321859991116,0.01635365318010443
3447.122573322784,-0.003873076918669404
3447.512933743855,0.00488075939045185
3447.903267264101,0.0008340433600950375
3448.2935738852975,-0.002488494248542048
3448.6838536092173,0.012125658490002992
3449.074106437637,-0.012879540138773514
3449.4643323723226,0.0010715216493566956
3449.8545314150633,-0.0047889215591263275
3450.244703567616,0.004996249277814497
3450.6348488317676,0.005055906356721838
3451.024967209285,0.005900979547229148
3451.415058701942,0.0020935073743304855
3451.8051233115107,0.00046083373342022967
3452.1951610397728,0.00861779786106368
3452.58517188849,0.004507292581060938
3452.9751558594403,0.007769801055509553
3453.365112954397,-0.010364638120056434
3453.7550431751342,0.0011784644632178817
3454.1449465234227,-0.005956849416735551
3454.5348230010336,0.005769196767602885
3454.924672609742,-0.0007020636027902803
3455.314495351318,0.0003232609076903529
3455.7042912275333,-0.004214655496836068
3456.094060240162,0.0034622132693104967
3456.483802390973,0.00454784405818879
3456.8735176817427,-0.012390194986116963
3457.2632061142376,0.006718786869697018
3457.652867690232,-0.003870520180494224
3458.0425024114975,-0.0014553099038689535
3458.4321102798012,-0.004908423062761445
3458.8216912969224,-0.003280113047735613
3459.2112454646226,0.01081248518187208
3459.600772784681,-0.002625808773183499
3459.9902732588603,0.006989946601656927
3460.37974688894,-0.0031225781030241734
3460.769193676682,-0.0026445869673932558
3461.1586136238593,-0.004042428204793234
3461.548006732245,0.00497146408042048
3461.937373003608,0.002545746715790516
3462.326712439717,0.01029088647291239
3462.716025042341,-0.0007917534568506919
3463.1053108132523,0.006470711375617812
3463.494569754219,-0.01841886439521606
3463.8838018670126,-0.005947867174361918
3464.2730071534,0.003254975287057363
3464.6621856151514,-0.0007437105784116903
3465.051337254034,0.0002847225796734269
3465.440462071821,0.004948117989581084
3465.829560070278,-0.003351074149447423
3466.2186312511744,0.010340217754257707
3466.607675616278,0.010038406896484437
3466.9966931673575,0.015371836722256099
3467.3856839061837,-0.01116628371914827
3467.774647834519,0.008226059942077885
3468.1635849541394,0.012288947889712652
3468.5524952668084,0.002110130542946705
3468.941378774295,-0.0010994437183888043
3469.3302354783664,0.003692122071541765
3469.7190653807884,0.009212138593997074
3470.1078684833315,0.015824493768920072
3470.496644787763,-0.00011545305177750583
3470.8853942958467,0.004557634980829079
3471.274117009351,0.014688963688757906
3471.6628129300457,0.03252335142637616
3472.0514820596977,0.01803697091177819
3472.4401244000705,0.02053056651794519
3472.8287399529304,0.029817952919532542
3473.217328720048,0.015693289295074162
3473.6058907031857,0.01830950444282772
3473.994425904109,0.041249318708142094
3474.382934324591,0.03355442008945834
3474.771415966389,0.04248338746195713
3475.1598708312754,0.04916878999232711
3475.5482989210127,0.0426266803546895
3475.9367002373683,0.05556427986813515
3476.325074782106,0.0606748565944423
3476.713422556992,0.0648152940179923
3477.101743563792,0.07690813031653898
3477.4900378042676,0.06526797672966161
3477.87830528019,0.08780468878500314
3478.2665459933187,0.10305938269266089
3478.654759945419,0.10076959858955852
3479.0429471382577,0.10764844157684104
3479.4311075736036,0.11756467453768066
3479.8192412532126,0.12183478376959471
3480.2073481788525,0.14256419681066776
3480.5954283522856,0.15345736319324743
3480.983481775283,0.15026038840215158
3481.371508449603,0.13898410652908358
3481.7595083770043,0.14119279590740436
3482.14748155926,0.1651516968875924
3482.5354279981266,0.16760593326367804
3482.9233476953755,0.15395884666069728
3483.3112406527616,0.15653457119869552
3483.699106872052,0.19545136306479197
3484.0869463550116,0.17171540350473036
3484.474759103396,0.18407877069485346
3484.8625451189773,0.2045888948799827
3485.2503044035097,0.1956203855920186
3485.638036958765,0.20221331468747886
3486.025742786496,0.2521543242434255
3486.4134218884737,0.24239732526713148
3486.8010742664515,0.26121683742763907
3487.188699922199,0.268303180141802
3487.576298857472,0.2969789056479241
3487.9638710740387,0.3194554678506706
3488.3514165736556,0.35336949533332496
3488.738935358087,0.3622894179600967
3489.126427429093,0.3818557295121123
3489.513892788436,0.36608089512283987
3489.9013314378735,0.3822435134875343
3490.2887433791743,0.34626741667929767
3490.676128614089,0.3289052040136213
3491.063487144389,0.3215809055034529
3491.4508189718254,0.3000767203094574
3491.8381240981657,0.29402762835260254
3492.225402525169,0.27330996251492495
3492.612654254595,0.2508852569441523
3492.999879288199,0.2528058283461303
3493.3870776277477,0.22495889431905583
3493.7742492750026,0.2133629137867655
3494.161394231716,0.19488558026016195
3494.5485124996503,0.20910235525880222
3494.935604080569,0.1835588499580683
3495.322668976228,0.18340546794082996
3495.7097071883886,0.1770402960433239
3496.0967187188057,0.1626349153696772
3496.4837035692435,0.1601047423655978
3496.8706617414605,0.15879250395145675
3497.2575932372115,0.16363271731302256
3497.6444980582564,0.1599446622407732
3498.031376206356,0.15022450789063363
3498.418227683269,0.14714434071132648
3498.8050524907517,0.14485589301999302
3499.191850630564,0.15237813534335218
3499.5786221044636,0.13582927563033326
3499.9653669142085,0.1404264982112215
3500.352085061555,0.1311276235102847
3500.7387765482604,0.13273834447638622
3501.125441376083,0.14629721480596164
3501.512079546783,0.14553159315453282
3501.898691062119,0.13104818511905525
3502.28527592384,0.1412562152422613
3502.6718341337123,0.13689241093884422
3503.058365693487,0.13063758131634934
3503.4448706049225,0.15414210268220507
3503.8313488697736,0.1558769691456794
3504.2178004898046,0.14279082424383094
3504.6042254667627,0.15379653151610242
3504.9906238024087,0.16541369738275058
3505.3769954985005,0.13628093618057535
3505.7633405567913,0.14619008223019045
3506.1496589790345,0.13895569442188788
3506.5359507669937,0.13434398668087194
3506.922215922418,0.1401663128954524
3507.3084544470667,0.12517940867425661
3507.6946663426907,0.12062653732050604
3508.080851611052,0.12321398301338614
3508.4670102539003,0.11585234538314276
3508.8531422729934,0.09573158192945451
3509.239247670087,0.10405594177938339
3509.6253264469356,0.1092066492098499
3510.011378605292,0.10916820593876242
3510.3974041469114,0.09960428254792504
3510.7834030735503,0.09278678559698801
3511.169375386962,0.09738797698080989
3511.5553210888993,0.10027962475641099
3511.941240181119,0.0972470769064442
3512.327132665374,0.09445827732377539
3512.7129985434176,0.09026397295364519
3513.098837817004,0.0896121061734611
3513.484650487889,0.09952916537523142
3513.8704365578237,0.06918397951655882
3514.2561960285584,0.08985459201359965
3514.6419289018545,0.09885658468880293
3515.0276351794587,0.08207103199486392
3515.4133148631245,0.09113445957026446
3515.798967954607,0.0630997976788404
3516.1845944556608,0.06782302658222507
3516.570194368033,0.07651997132800119
3516.955767693481,0.08301716860529629
3517.341314433758,0.08401283044228923
3517.7268345906086,0.0821348306635007
3518.112328165796,0.0741419308287746
3518.497795161064,0.07856081265441515
3518.8832355781656,0.07662019997200616
3519.268649418857,0.07302784513367777
3519.6540366848844,0.08282900895401858
3520.0393973780083,0.07391471594344917
3520.4247314999666,0.08793747815685861
3520.810039052522,0.08611793698117044
3521.195320037422,0.06527156070500044
3521.5805744564173,0.06987379152407519
3521.965802311256,0.07251842109675917
3522.351003603697,0.0809150468931606
3522.7361783354813,0.07584970184733762
3523.1213265083666,0.07359852292867074
3523.5064481241034,0.07410088453764249
3523.891543184438,0.0754599218826422
3524.276611691123,0.08122608228966358
3524.6616536459046,0.07768792131778926
3525.046669050539,0.07353676021819291
3525.4316579067745,0.06013984156002862
3525.816620216356,0.07955924119059431
3526.2015559810393,0.07093639787036882
3526.586465202573,0.059311423932900564
3526.9713478826993,0.07095616328406837
3527.356204023181,0.0762938920148966
3527.741033625754,0.07256706696057141
3528.1258366921757,0.0775986808503243
3528.5106132241876,0.0666422757837848
3528.895363223545,0.0737563819461848
3529.2800866919947,0.07180365988484196
3529.6647836312854,0.06488736975320825
3530.0494540431623,0.07138897458627934
3530.434097929379,0.07403050929163255
3530.81871529168,0.05791929621715807
3531.2033061318157,0.08911954807841907
3531.5878704515317,0.07699034891011093
3531.972408252579,0.06559463457285715
3532.3569195367004,0.07142234384318288
3532.7414043056483,0.06124995989708144
3533.125862561168,0.07118504825324122
3533.5102943050047,0.07400878201286802
3533.8946995389106,0.07039417488729677
3534.2790782646266,0.06757582485101266
3534.6634304839067,0.05353405297794519
3535.0477561984917,0.06819232277952274
3535.4320554101296,0.07230269987244313
3535.816328120569,0.07696524720297085
3536.200574331558,0.061937006900960864
3536.584794044839,0.06408336258546864
3536.9689872621584,0.0669044200089803
3537.3531539852634,0.06162650319263272
3537.737294215904,0.06334238167695251
3538.1214079558163,0.05671255186401739
3538.505495206756,0.057261390448056684
3538.88955597046,0.048174382055201734
3539.273590248684,0.057130321350159774
3539.6575980431667,0.06768290554550602
3540.04157935565,0.04085301869022952
3540.4255341878875,0.041828231546832656
3540.80946254162,0.04599553348492556
3541.193364418594,0.032848765578068546
3541.5772398205468,0.04978659471122698
3541.9610887492317,0.04683066091351443
3542.3449112063954,0.053576633427655805
3542.7287071937717,0.04060892709917002
3543.1124767131128,0.045511778757660305
3543.496219766158,0.05016907870133628
3543.879936354655,0.03940822916253598
3544.2636264803486,0.05469232017827379
3544.6472901449783,0.034652401874929684
3545.030927350292,0.0353144471763427
3545.414538098032,0.038310905960388913
3545.79812238994,0.05070883209304853
3546.1816802277626,0.044057556446393205
3546.5652116132374,0.026772736108730863
3546.94871654811,0.03259436398653574
3547.3321950341274,0.041796811430528685
3547.7156470730283,0.02887085757296599
3548.0990726665545,0.03045037289651008
3548.4824718164527,0.04026758243031494
3548.86584452446,0.0408017030914614
3549.249190792326,0.04035150525157201
3549.6325106217864,0.049677684185856816
3550.0158040145843,0.045721588585515685
3550.3990709724612,0.04139533101243703
3550.782311497167,0.039281981579523034
3551.1655255904343,0.038889930844631944
3551.548713254004,0.03320715248593275
3551.931874489623,0.03139848018686142
3552.315009299032,0.01900737650413669
3552.6981176839713,0.039529691810182004
3553.0811996461794,0.024059685679241428
3553.4642551874003,0.018063016678583763
3553.847284309374,0.013726372103853838
3554.230287013839,0.023850783654555674
3554.6132633025436,0.01846631911637373
3554.996213177222,0.019912516928896083
3555.379136639613,0.01864983419901548
3555.76203369146,0.014800823274625839
3556.1449043345024,0.015506254605401983
3556.5277485704796,0.025877149113481226
3556.9105664011327,0.015068174454905922
3557.2933578282045,0.01700318658756582
3557.676122853426,0.013026076080671353
3558.0588614785456,0.010956815179336377
3558.4415737052964,0.017200998337654736
3558.8242595354204,0.006507313545968867
3559.2069189706604,0.01053310860017423
3559.5895520127506,0.01363470799994276
3559.9721586634296,0.00595503628011318
3560.354738924438,0.010102634701469581
3560.7372927975143,0.015605566857105884
3561.1198202843952,0.008107057136029697
3561.502321386824,0.026180093259722027
3561.8847961065326,0.013626368843735545
3562.2672444452664,0.0024876602803354944
3562.649666404757,-0.0007024076153500979
3563.0320619867466,0.001962062522478362
3563.414431192969,-0.0017848292193622796
3563.796774025166,0.017153444208099698
3564.179090485075,0.0032945407157360307
3564.5613805744315,0.0026274252053096825
3564.9436442949736,0.006090690910127659
3565.3258816484345,0.014363503150086804
3565.7080926365597,0.010981157226081792
3566.0902772610807,0.004822224010240638
3566.4724355237327,0.006741413467641338
3566.8545674262555,0.0063778110847133316
3567.236672970387,-0.01310941707945687
3567.6187521578618,0.007066855352343467
3568.0008049904195,-0.005082998999882378
3568.382831469787,0.022437123019112205
3568.7648315977126,0.0008443609247001688
3569.1468053759204,0.004424458043981644
3569.5287528061594,0.014730783869465549
3569.910673890152,0.0028815992475151914
3570.292568629643,-0.002180846427375794
3570.674437026367,0.011704592585766869
3571.0562790820522,0.010961335721561868
3571.4380947984473,0.0002780673431453751
3571.819884177275,-0.0018877999614198729
3572.2016472202763,-0.009179408476363022
3572.583383929182,-0.0017156468389764347
3572.9650943057336,0.0050689966042391545
3573.3467783516608,0.003885729741128022
3573.7284360686954,0.006586215174119898
3574.11006745858,-0.0007873046206988857
3574.4916725230396,0.0031964095932033166
3574.8732512638207,0.00000838137129406012
3575.2548036826465,0.00039620935668472187
3575.636329781251,-0.002002595113753082
3576.017829561377,0.0035619573118390586
3576.3993030247493,0.00034693998718165017
3576.7807501731077,0.01615738770675453
3577.1621710081836,-0.006288495946555904
3577.543565531707,-0.00742207770157228
3577.9249337454135,0.0012653295870202952
3578.3062756510403,-0.006060635976119472
3578.687591250315,-0.004121221133332748
3579.0688805449727,-0.004103519911191845
3579.4501435367447,-0.001000189999838763
3579.831380227367,-0.003960861572607717
3580.212590618567,-0.0013624266954672568
3580.5937747120843,-0.0027881140197030152
3580.9749325096423,-0.0034151533785082874
3581.3560640129776,0.0020134639541023636
3581.737169223825,-0.014085199408374478
3582.1182481439123,-0.009408399680266253
3582.499300774974,0.0007696573858768456
3582.88032711874,-0.014047257308698206
3583.261327176941,0.0009484246605439507
3583.6423009513123,-0.0056506074190348695
3584.0232484435833,-0.0004368566562947155
3584.404169655483,0.014488375894993114
3584.785064588743,-0.0006012592736738183
3585.165933245098,-0.01897684696202063
3585.546775626272,-0.0016476989287486977
3585.9275917340033,0.004105782914244185
3586.3083815700215,0.009670805856390406
3586.689145136054,0.022599690698815685
3587.0698824338288,0.022835887811429048
3587.45059346508,-0.00572030429264387
3587.8312782315365,0.00020393966251786762
3588.2119367349283,-0.0003137732699615881
3588.5925689769906,-0.010804396223876465
3588.9731749594434,0.0053303488374174144
3589.3537546840207,-0.0032468746064426533
3589.7343081524564,-0.01374793510089249
3590.114835366475,-0.004679196579206936
3590.4953363278055,0.00358312733085162
3590.875811038179,0.0003834583334521047
3591.256259499324,-0.004429627279339263
3591.6366817129674,0.0136795063006439
3592.017077680844,0.011403211543960939
3592.3974474046745,0.006460166715388565
3592.7777908861967,-0.0022035968408040865
3593.1581081271283,0.014354213386881825
3593.538399129205,0.020376107033917786
3593.918663894153,0.012512826939533532
3594.2989024237017,0.01394555942407672
3594.679114719575,0.0037845434077598823
3595.059300783504,0.014266307685653186
3595.439460617217,0.018486361991143157
3595.8195942224406,0.020163895724514595
3596.199701600899,0.03163859347785471
3596.5797827543256,0.0476413299439172
3596.959837684444,0.051800102299475966
3597.339866392984,0.0741939171090706
3597.719868881667,0.1031654532379465
3598.099845152225,0.16359099697529084
3598.4797952063855,0.26347984251234263
3598.85971904587,0.40544596829686713
3599.2396166724084,0.5487968006439928
3599.6194880877265,0.751858871769828
3599.9993332935537,0.9463859463770883
3600.37915229161,1.038855488828559
3600.758945083625,1.0252745151695801
3601.1387116713227,0.9347302329430084
3601.518452056434,0.7451097230027215
3601.8981662406795,0.5530430139986613
3602.277854225785,0.3481004283430286
3602.6575160134785,0.23054401257740423
3603.037151605483,0.13172305073851
3603.4167610035265,0.11497528177668521
3603.796344209329,0.10667171579218203
3604.175901224623,0.10861512338167664
3604.555432051125,0.10062368502677414
3604.9349366905644,0.11704175834415273
3605.3144151446645,0.10215884063443509
3605.6938674151506,0.08249278582995849
3606.073293503752,0.09761436927146927
3606.4526934121814,0.084721315751061
3606.83206714217,0.08543535834993354
3607.211414695443,0.07204731437943604
3607.590736073722,0.05785213144335664
3607.9700312787327,0.051611962875381466
3608.349300312192,0.03617581668583775
3608.7285431758332,0.036278363190951395
3609.107759871376,0.02146638352549479
3609.486950400539,0.02256850726712459
3609.8661147650505,0.02336312692916706
3610.2452529666334,0.008929707691595902
3610.624365007007,0.024651766192396705
3611.0034508878966,0.01358091582367731
3611.382510611026,0.0005844988022868728
3611.7615441781163,0.017501581421711522
3612.1405515908928,0.005070885518338726
3612.5195328510736,0.008377692391650218
3612.8984879603813,0.011813389869933485
3613.27741692054,0.0062964149320131
3613.6563197332675,-0.014146917134229187
3614.0351964002925,-0.010947431165986976
3614.4140469233303,0.007381070530907166
3614.7928713041097,0.007305283632469293
3615.1716695443447,-0.0004764795525018648
3615.5504416457616,-0.0022759528282055293
3615.9291876100788,0.004521352040535809
3616.307907439016,0.006411065177381184
3616.686601134302,-0.004139673985488869
3617.06526869765,0.00044113614728116536
3617.443910130784,-0.0009468962163687499
3617.8225254354193,0.015475825010485026
3618.2011146132872,0.023688070103402802
3618.5796776660964,0.022878157317156568
3618.958214595577,0.021200748844785833
3619.3367254034424,0.008878385239521282
3619.7152100914145,0.005836763324910748
3620.093668661216,0.016748303389212876
3620.472101114565,-0.0071538335531480665
3620.85050745318,-0.010813651665396369
3621.2288876787775,-0.007246881652935331
3621.6072417930836,-0.003118460062996496
3621.985569797817,-0.016932584816841328
3622.3638716946916,0.0010270746090495582
3622.7421474854286,0.0007309550600742449
3623.120397171752,0.000993886711603704
3623.498620755376,0.0015661522452243015
3623.8768182380177,0.004503943068089849
3624.2549896213973,0.019717348857963543
3624.633134907235,0.008749313126600152
3625.0112540972495,0.0180969811006539
3625.3893471931556,0.0065566517691944045
3625.7674141966754,-0.005926081865943946
3626.1454551095258,0.01974118620978229
3626.523469933421,-0.00017539992245212978
3626.901458670084,0.003781131828221657
3627.2794213212287,0.006545467943896563
3627.65735788858,0.0017553983480961708
3628.035268373841,0.009679395042306064
3628.413152778742,0.0001298637974424678
3628.791011104995,-0.0008020622935209951
3629.1688433543195,0.017080920161414628
3629.5466495284277,-0.0018092461898835644
3629.9244296290426,0.010461092109402968
3630.302183657874,0.01845270996767389
3630.679911616644,0.013549109480295772
3631.05761350707,0.012717667945143233
3631.4352893308615,0.02076053613973502
3631.8129390897407,0.004970310458282562
3632.1905627854244,0.01776928055660205
3632.5681604196234,0.019146151852383175
3632.945731994057,0.021454865518757953
3633.323277510441,0.017823920358891947
3633.700796970489,0.023981624811686517
3634.0782903759173,0.013638535847697154
3634.4557577284468,0.008517597487417063
3634.8331990297825,-0.0034369306017163017
3635.2106142816474,0.0023757306995755433
3635.588003485752,0.0005349339680300247
3635.9653666438167,0.009960687936882238
3636.3427037575507,0.017158462696238132
3636.7200148286715,0.0061936675478109745
3637.097299858895,0.014917812537580366
3637.474558849931,0.017527002729297282
3637.8517918034977,0.0038934701060462248
3638.2289987213067,0.008127719777899832
3638.6061796050726,0.008669572348185087
3638.983334456516,0.005326531765263575
3639.3604632773418,0.004406083244295129
3639.737566069266,-0.0013460526528244526
3640.114642834008,0.009130398136424769
3640.4916935732704,-0.020427387741126866
3640.868718288777,0.015004877254411497
3641.2457169822355,-0.006003929760993117
3641.622689655361,0.012268839627772
3641.9996363098658,0.0009868269062728741
3642.376556947463,-0.006085651301644394
3642.753451569861,-0.006381997418646195
3643.130320178783,-0.0027136447375111328
3643.5071627759357,-0.010464910226954796
3643.8839793630273,0.008270042085069927
3644.2607699417767,0.023408673266590813
3644.6375345138918,0.024754455863428802
3645.014273081086,0.018124704381922273
3645.3909856450728,0.026857767957413563
3645.7676722075626,0.012287897482266033
3646.14433277027,0.030231484768420937
3646.520967334899,0.031069083167855716
3646.897575903168,0.042086554979248805
3647.2741584767905,0.0670430865279551
3647.65071505747,0.10331418050853694
3648.027245646921,0.16129533659640855
3648.4037502468536,0.22271231651929077
3648.780228858984,0.2608337191727345
3649.156681485015,0.2773468782296607
3649.533108126664,0.2850854041599669
3649.90950878564,0.25117294991490907
3650.285883463647,0.22651708686642585
3650.662232162403,0.19546388074625018
3651.0385548836152,0.2456388769603177
3651.414851628995,0.3421708559780161
3651.7911224002532,0.5141373187310234
3652.167367199096,0.7548522561763207
3652.543586027236,1.0101379734181986
3652.919778886381,1.1852634945670497
3653.295945778241,1.2973200545114838
3653.672086704526,1.5133597012345694
3654.0482016669425,2.4338980473921095
3654.4242906672052,5.647094331583831
3654.800353707018,15.52154213914206
3655.1763907880927,36.312082907284164
3655.552401912136,64.0106977099491
3655.9283870808595,84.59603372832176
3656.304346295967,93.02765279124907
3656.680279559172,89.83485289266766
3657.0561868721816,74.28837005784703
3657.432068236702,47.022131127660636
3657.80792365444,21.076255125141742
3658.1837531271076,7.215034443877435
3658.5595566564084,2.110502712736749
3658.9353342440554,0.6375165160144652
3659.311085891751,0.26174653651785174
3659.6868116012083,0.14059402326078427
3660.062511374129,0.09556081709141456
3660.4381852122224,0.0648630474527944
3660.8138331171967,0.06080365767511554
3661.1894550907573,0.045048888379128814
3661.5650511346116,0.036675570664200886
3661.9406212504637,0.023888022888015767
3662.316165440025,0.010259044353394545
3663.1536591309805,-0.0000248088751807517
